T,K           Q(T)

   1                 3.0678
   2                 8.0505
   3                14.3307
   4                21.7062
   5                30.0367
   6                39.2238
   7                49.1945
   8                59.8914
   9                71.2684
  10                83.2871
  11                95.9148
  12               109.1237
  13               122.8891
  14               137.1894
  15               152.0055
  16               167.3199
  17               183.1169
  18               199.3823
  19               216.1031
  20               233.2671
  21               250.8631
  22               268.8809
  23               287.3109
  24               306.1439
  25               325.3718
  26               344.9864
  27               364.9804
  28               385.3467
  29               406.0786
  30               427.1699
  31               448.6144
  32               470.4066
  33               492.5410
  34               515.0123
  35               537.8157
  36               560.9465
  37               584.3999
  38               608.1718
  39               632.2578
  40               656.6540
  41               681.3566
  42               706.3616
  43               731.6658
  44               757.2652
  45               783.1570
  46               809.3376
  47               835.8039
  48               862.5530
  49               889.5820
  50               916.8877
  51               944.4677
  52               972.3191
  53              1000.4397
  54              1028.8265
  55              1057.4771
  56              1086.3894
  57              1115.5608
  58              1144.9891
  59              1174.6723
  60              1204.6079
  61              1234.7938
  62              1265.2282
  63              1295.9094
  64              1326.8348
  65              1358.0029
  66              1389.4117
  67              1421.0592
  68              1452.9441
  69              1485.0642
  70              1517.4181
  71              1550.0040
  72              1582.8203
  73              1615.8656
  74              1649.1378
  75              1682.6360
  76              1716.3586
  77              1750.3037
  78              1784.4701
  79              1818.8565
  80              1853.4616
  81              1888.2836
  82              1923.3217
  83              1958.5744
  84              1994.0404
  85              2029.7181
  86              2065.6066
  87              2101.7048
  88              2138.0114
  89              2174.5468
  90              2211.2669
  91              2248.1919
  92              2285.3207
  93              2322.6521
  94              2360.1849
  95              2397.9187
  96              2435.8515
  97              2473.9829
  98              2512.3373
  99              2550.8630
 100              2589.5840
 101              2628.4995
 102              2667.6356
 103              2706.9374
 104              2746.4315
 105              2786.1162
 106              2826.0190
 107              2866.0828
 108              2906.3638
 109              2946.8030
 110              2987.4587
 111              3028.2707
 112              3069.2985
 113              3110.4791
 114              3151.8749
 115              3193.4212
 116              3235.1817
 117              3277.1240
 118              3319.2473
 119              3361.5502
 120              3403.9987
 121              3446.6591
 122              3489.4974
 123              3532.5484
 124              3575.7412
 125              3619.1097
 126              3662.6532
 127              3706.3712
 128              3750.2999
 129              3794.3651
 130              3838.6407
 131              3883.0893
 132              3927.6709
 133              3972.4623
 134              4017.4245
 135              4062.5572
 136              4107.8591
 137              4153.3300
 138              4198.9694
 139              4244.8195
 140              4290.7946
 141              4336.9791
 142              4383.2871
 143              4429.8050
 144              4476.4887
 145              4523.3375
 146              4570.3518
 147              4617.5296
 148              4664.9181
 149              4712.4236
 150              4760.1393
 151              4807.9700
 152              4856.0119
 153              4904.2150
 154              4952.5798
 155              5001.1063
 156              5049.8430
 157              5098.6911
 158              5147.7494
 159              5196.9690
 160              5246.3479
 161              5295.8853
 162              5345.5826
 163              5395.4917
 164              5445.5060
 165              5495.7317
 166              5546.1169
 167              5596.6587
 168              5647.3592
 169              5698.2717
 170              5749.2856
 171              5800.5126
 172              5851.8974
 173              5903.4376
 174              5955.1336
 175              6007.0450
 176              6059.0525
 177              6111.2754
 178              6163.6539
 179              6216.1881
 180              6268.9389
 181              6321.8445
 182              6374.8419
 183              6428.0566
 184              6481.4904
 185              6535.0145
 186              6588.7573
 187              6642.5890
 188              6696.6395
 189              6750.9110
 190              6805.2690
 191              6859.8487
 192              6914.5823
 193              6969.4684
 194              7024.5080
 195              7079.7707
 196              7135.1176
 197              7190.6868
 198              7246.4815
 199              7302.3570
 200              7358.4577
 201              7414.7120
 202              7471.1200
 203              7527.6788
 204              7584.4663
 205              7641.3317
 206              7698.5012
 207              7755.7473
 208              7813.1465
 209              7870.7767
 210              7928.5583
 211              7986.4929
 212              8044.6600
 213              8102.9798
 214              8161.4535
 215              8220.0800
 216              8278.8580
 217              8337.8722
 218              8397.0397
 219              8456.3606
 220              8515.9173
 221              8575.6286
 222              8635.4946
 223              8695.5133
 224              8755.6839
 225              8816.0958
 226              8876.6609
 227              8937.3802
 228              8998.3410
 229              9059.4563
 230              9120.7273
 231              9182.1510
 232              9243.8191
 233              9305.6432
 234              9367.6215
 235              9429.7540
 236              9492.1357
 237              9554.6711
 238              9617.3622
 239              9680.2080
 240              9743.3040
 241              9806.5572
 242              9869.9647
 243              9933.6256
 244              9997.4431
 245             10061.4174
 246             10125.5465
 247             10189.9331
 248             10254.4760
 249             10319.1752
 250             10384.0338
 251             10449.1499
 252             10514.4229
 253             10579.8549
 254             10645.5478
 255             10711.3981
 256             10777.4089
 257             10843.5763
 258             10910.0097
 259             10976.6012
 260             11043.3529
 261             11110.3710
 262             11177.4399
 263             11244.8902
 264             11312.3886
 265             11380.1596
 266             11447.9765
 267             11516.1807
 268             11584.4320
 269             11652.9582
 270             11721.6455
 271             11790.4959
 272             11859.6218
 273             11928.9113
 274             11998.3627
 275             12068.0950
 276             12137.9896
 277             12208.0506
 278             12278.2722
 279             12348.7791
 280             12419.4491
 281             12490.2843
 282             12561.2827
 283             12632.5689
 284             12704.0220
 285             12775.6380
 286             12847.5455
 287             12919.6194
 288             12991.8601
 289             13064.3938
 290             13137.0967
 291             13209.9660
 292             13283.0018
 293             13356.3361
 294             13429.8385
 295             13503.5091
 296             13577.4800
 297             13651.4881
 298             13725.9303
 299             13800.4120
 300             13875.1945
 301             13950.1507
 302             14025.2768
 303             14100.7104
 304             14176.3175
 305             14252.0942
 306             14328.0436
 307             14404.3052
 308             14480.7382
 309             14557.3456
 310             14634.2682
 311             14711.3649
 312             14788.6348
 313             14866.2237
 314             14943.8434
 315             15021.7826
 316             15100.0436
 317             15178.3362
 318             15256.9502
 319             15335.8880
 320             15414.8570
 321             15494.1524
 322             15573.6247
 323             15653.4264
 324             15733.2566
 325             15813.4181
 326             15893.9099
 327             15974.4309
 328             16055.2841
 329             16136.3191
 330             16217.6913
 331             16299.0910
 332             16380.9835
 333             16462.9016
 334             16545.0027
 335             16627.4438
 336             16710.2292
 337             16793.0406
 338             16876.1950
 339             16959.5370
 340             17043.0618
 341             17126.9367
 342             17210.9971
 343             17295.2452
 344             17379.8485
 345             17464.6352
 346             17549.6116
 347             17634.7757
 348             17720.2981
 349             17806.0079
 350             17891.9096
 351             17978.1695
 352             18064.6210
 353             18151.2642
 354             18238.0971
 355             18325.2955
 356             18412.6876
 357             18500.2715
 358             18588.2271
 359             18676.3743
 360             18764.7173
 361             18853.2523
 362             18942.1599
 363             19031.2654
 364             19120.7450
 365             19210.2434
 366             19300.1156
 367             19390.1900
 368             19480.6435
 369             19571.2969
 370             19662.1484
 371             19753.1980
 372             19844.6340
 373             19936.2702
 374             20028.1065
 375             20120.3337
 376             20212.5718
 377             20305.3945
 378             20398.2265
 379             20491.4567
 380             20584.8871
 381             20678.5242
 382             20772.3619
 383             20866.6030
 384             20961.0467
 385             21055.8953
 386             21150.7494
 387             21246.0104
 388             21341.6786
 389             21437.3564
 390             21533.4434
 391             21629.7394
 392             21726.4437
 393             21823.1570
 394             21920.2848
 395             22017.8255
 396             22115.3749
 397             22213.3412
 398             22311.5189
 399             22410.1192
 400             22508.7253
 401             22607.7517
 402             22707.2030
 403             22806.6600
 404             22906.5440
 405             23006.6460
 406             23107.1742
 407             23207.7095
 408             23308.6730
 409             23410.0715
 410             23511.4727
 411             23613.3109
 412             23715.3675
 413             23817.6470
 414             23920.3638
 415             24023.3034
 416             24126.4660
 417             24230.0705
 418             24333.9044
 419             24437.9548
 420             24542.2350
 421             24646.9607
 422             24751.9116
 423             24857.0902
 424             24962.7211
 425             25068.3523
 426             25174.6679
 427             25280.9822
 428             25387.7543
 429             25494.5282
 430             25601.9912
 431             25709.4521
 432             25817.3788
 433             25925.5358
 434             26033.9257
 435             26142.7818
 436             26251.8749
 437             26361.2010
 438             26470.7580
 439             26580.7935
 440             26691.0599
 441             26801.5661
 442             26912.5469
 443             27023.7674
 444             27135.2235
 445             27246.9264
 446             27359.1053
 447             27471.5221
 448             27584.1815
 449             27697.3283
 450             27810.7175
 451             27924.3494
 452             28038.2221
 453             28152.5880
 454             28267.1990
 455             28382.0531
 456             28497.1505
 457             28612.7472
 458             28728.5893
 459             28844.6792
 460             28961.2712
 461             29078.1109
 462             29195.2031
 463             29312.5392
 464             29430.3855
 465             29548.4799
 466             29666.8295
 467             29785.6898
 468             29904.8051
 469             30024.1691
 470             30143.7908
 471             30263.9248
 472             30384.0571
 473             30504.9685
 474             30625.8742
 475             30747.3027
 476             30868.9826
 477             30990.9255
 478             31113.3983
 479             31235.8552
 480             31358.8420
 481             31482.3638
 482             31605.8717
 483             31729.9168
 484             31854.2233
 485             31979.0686
 486             32104.1775
 487             32229.5502
 488             32355.1870
 489             32481.0881
 490             32607.5354
 491             32734.2469
 492             32861.5131
 493             32988.7594
 494             33116.5580
 495             33244.6260
 496             33373.2479
 497             33502.1437
 498             33631.3091
 499             33760.7465
 500             33890.4563
 501             34020.7252
 502             34151.2687
 503             34282.3753
 504             34413.4696
 505             34545.1248
 506             34677.0619
 507             34809.5662
 508             34942.0552
 509             35075.1136
 510             35208.7535
 511             35342.3711
 512             35476.5656
 513             35611.0452
 514             35745.8055
 515             35881.1478
 516             36016.7686
 517             36152.6773
 518             36288.8695
 519             36425.6502
 520             36562.7167
 521             36700.0671
 522             36838.0135
 523             36975.9355
 524             37114.4511
 525             37253.5704
 526             37392.6769
 527             37532.3730
 528             37672.3631
 529             37812.6403
 530             37953.5241
 531             38094.7022
 532             38236.1723
 533             38377.9349
 534             38520.3105
 535             38662.9856
 536             38805.9511
 537             38949.5326
 538             39093.0898
 539             39237.5974
 540             39382.0719
 541             39526.8446
 542             39672.2482
 543             39817.9476
 544             39964.2797
 545             40110.5797
 546             40257.5076
 547             40404.7485
 548             40552.6169
 549             40700.4619
 550             40848.9415
 551             40997.7275
 552             41147.1571
 553             41296.8955
 554             41446.9384
 555             41597.2858
 556             41747.9478
 557             41899.2564
 558             42050.8724
 559             42203.1440
 560             42355.3860
 561             42508.2812
 562             42661.4868
 563             42815.0078
 564             42969.1924
 565             43123.6899
 566             43278.5057
 567             43433.9808
 568             43589.4249
 569             43745.5405
 570             43901.9725
 571             44059.0754
 572             44216.5020
 573             44374.2475
 574             44532.3173
 575             44690.7018
 576             44849.7702
 577             45009.1606
 578             45169.2392
 579             45329.2756
 580             45490.0075
 581             45651.0597
 582             45812.4372
 583             45974.5062
 584             46136.9079
 585             46299.6329
 586             46462.6912
 587             46626.4428
 588             46790.5303
 589             46954.9491
 590             47120.0717
 591             47285.1498
 592             47450.9392
 593             47617.4381
 594             47783.8974
 595             47951.0638
 596             48118.5722
 597             48286.4131
 598             48454.9717
 599             48623.4943
 600             48792.7320
 601             48962.6982
 602             49132.6133
 603             49303.2593
 604             49474.2437
 605             49645.9583
 606             49817.6313
 607             49990.0371
 608             50162.7895
 609             50336.2792
 610             50509.7163
 611             50683.8984
 612             50858.4200
 613             51033.6961
 614             51209.3093
 615             51384.8888
 616             51561.6086
 617             51738.2752
 618             51915.7046
 619             52093.4795
 620             52271.6105
 621             52450.4948
 622             52629.3397
 623             52808.9354
 624             52989.2903
 625             53169.6058
 626             53350.6830
 627             53532.1223
 628             53713.9138
 629             53896.4780
 630             54079.4021
 631             54262.6915
 632             54446.3466
 633             54630.7712
 634             54815.1543
 635             55000.7306
 636             55186.2455
 637             55372.5525
 638             55558.8070
 639             55746.2658
 640             55933.6779
 641             56121.8740
 642             56310.4447
 643             56499.3853
 644             56688.7013
 645             56878.8084
 646             57069.2883
 647             57260.1466
 648             57451.3782
 649             57643.4135
 650             57835.8248
 651             58028.6177
 652             58222.2149
 653             58415.7573
 654             58610.1119
 655             58805.2819
 656             59000.3971
 657             59196.3304
 658             59392.6516
 659             59589.3506
 660             59786.8736
 661             59984.7875
 662             60183.0768
 663             60381.7630
 664             60580.8304
 665             60780.7254
 666             60981.0095
 667             61182.1365
 668             61383.2012
 669             61585.1060
 670             61787.4035
 671             61990.0885
 672             62193.6197
 673             62397.5519
 674             62601.8746
 675             62806.5883
 676             63012.1609
 677             63218.1218
 678             63424.4927
 679             63631.2525
 680             63838.8679
 681             64046.8965
 682             64255.3169
 683             64464.1404
 684             64673.8269
 685             64883.9246
 686             65094.4174
 687             65305.7904
 688             65517.1029
